time,seconds_elapsed,relativeAltitude,pressure
1700007020030322000,-0.550677978515625,0,1015.8182525634766
1700007021039047700,0.458047607421875,0.026422500610351562,1015.8148193359375
1700007022047764700,1.4667646484375,0.05284690856933594,1015.8114624023438
1700007023056558600,2.47555859375,0.06870079040527344,1015.8097076416016
1700007024065361700,3.484361572265625,0.0792694091796875,1015.8087158203125
1700007024412808700,3.83180859375,0.08983802795410156,1015.8071136474609
1700007025488814800,4.90781494140625,0.11626243591308594,1015.8042144775391
1700007026564790800,5.983790771484375,0.1268310546875,1015.8027648925781
1700007027640733700,7.059733642578125,0.13211631774902344,1015.8019256591797
1700007028716724700,8.135724853515624,0.1426849365234375,1015.8006286621094
1700007029792788700,9.211788818359375,0.14797019958496094,1015.8003997802734
1700007030868810800,10.287810791015625,0.14797019958496094,1015.8002471923828
1700007031944779500,11.363779541015624,0.14797019958496094,1015.8002471923828
1700007033020822800,12.43982275390625,0.14797019958496094,1015.8003997802734
1700007034096874800,13.515874755859375,0.14797019958496094,1015.8003997802734
1700007035172936700,14.591936767578124,0.13740158081054688,1015.8016967773438
1700007036248985900,15.66798583984375,0.1268310546875,1015.8031463623047
1700007037325021700,16.744021728515627,0.10569190979003906,1015.8049774169922
1700007038401094700,17.8200947265625,0.10569190979003906,1015.8049774169922
1700007039477179000,18.896178955078124,0.10569190979003906,1015.8049774169922
1700007040553227800,19.972227783203124,0.13211631774902344,1015.8020782470703
1700007041629245000,21.048244873046876,0.13211631774902344,1015.8018493652344
1700007042705267700,22.124267822265626,0.15325546264648438,1015.7994079589844
1700007043781278700,23.20027880859375,0.16382408142089844,1015.7980346679688
1700007044857270800,24.276270751953124,0.22723960876464844,1015.7905578613281
1700007045933266700,25.3522666015625,0.4280567169189453,1015.7664489746094
1700007047009307600,26.4283076171875,0.8666801452636719,1015.7137298583984
1700007048085342700,27.5043427734375,1.5008373260498047,1015.6376647949219
1700007049161367600,28.580367431640624,2.3146724700927734,1015.53955078125
1700007050237416700,29.656416748046876,3.1813526153564453,1015.4351043701172
1700007051313412600,30.73241259765625,3.942340850830078,1015.3437805175781
1700007052389375700,31.808375732421876,4.481374740600586,1015.2784729003906
1700007053465346800,32.884346923828126,4.814306259155273,1015.2384948730469
1700007054541386500,33.96038647460937,4.935853958129883,1015.2239990234375
1700007055617453800,35.036453857421876,4.935853958129883,1015.2239990234375
1700007056693531000,36.11253076171875,4.935853958129883,1015.2241516113281
1700007057769609700,37.18860961914063,4.909429550170898,1015.2269744873047
1700007058845684700,38.264684814453126,4.883007049560547,1015.230712890625
1700007059921790700,39.34079077148437,4.861867904663086,1015.2328491210938
1700007060997837800,40.416837890625,4.856584548950195,1015.2335357666016
1700007062073945900,41.49294580078125,4.856584548950195,1015.2336883544922
1700007063150057000,42.56905688476562,4.846014022827148,1015.2345275878906
1700007064226151700,43.645151611328124,4.846014022827148,1015.2345275878906
1700007065302241800,44.72124169921875,4.851299285888672,1015.2339172363281
1700007066378369800,45.797369873046875,4.856584548950195,1015.2335357666016
1700007067454494700,46.87349462890625,4.872438430786133,1015.2317810058594
1700007068530553900,47.94955395507812,4.883007049560547,1015.2302551269531
1700007069606610000,49.02560986328125,4.914714813232422,1015.2268981933594
1700007070682686700,50.10168676757812,4.920000076293945,1015.2259063720703
1700007071758740700,51.17774072265625,4.983415603637695,1015.2183532714844
1700007072834833700,52.25383374023438,5.200084686279297,1015.1921844482422
1700007073910897000,53.32989697265625,5.622856140136719,1015.1410675048828
1700007074986950700,54.40595068359375,6.2517290115356445,1015.0655364990234
1700007076063043800,55.4820439453125,7.081417083740234,1014.9658966064453
1700007077139135700,56.5581357421875,7.985090255737305,1014.8574829101562
1700007078215167700,57.63416772460938,8.74079418182373,1014.7665405273438
1700007079291255800,58.710255859375,9.279827117919922,1014.7012329101562
1700007080367373800,59.78637377929687,9.618043899536133,1014.6608734130859
1700007081443426600,60.86242651367188,9.766014099121094,1014.6431732177734
1700007082519445800,61.93844580078125,9.776582717895508,1014.6419525146484
1700007083595443700,63.01444360351562,9.776582717895508,1014.6419525146484
1700007084671476700,64.09047680664062,9.7712984085083,1014.6424102783203
1700007085747474700,65.166474609375,9.766014099121094,1014.6427917480469
1700007086823486700,66.24248681640626,9.766014099121094,1014.6427917480469
1700007087899527700,67.31852758789063,9.766014099121094,1014.6427917480469
1700007088975667700,68.39466772460938,9.766014099121094,1014.6427917480469
1700007090051728000,69.47072778320313,9.755444526672363,1014.6440124511719
1700007091127775700,70.54677563476562,9.755444526672363,1014.6440124511719
1700007092203849000,71.62284887695313,9.766014099121094,1014.6429443359375
1700007093279946800,72.69894677734375,9.766014099121094,1014.6429443359375
1700007094356088600,73.77508862304687,9.766014099121094,1014.6429443359375
1700007095432221700,74.8512216796875,9.781867980957031,1014.6410369873047
1700007096508379600,75.92737963867188,9.787152290344238,1014.6401977539062
1700007097584454700,77.00345458984376,9.797721862792969,1014.6392059326172
1700007098660487700,78.07948779296875,9.8082914352417,1014.6382904052734
1700007099736535800,79.15553588867188,9.813575744628906,1014.637451171875
1700007100812638700,80.231638671875,9.813575744628906,1014.6372985839844
1700007101888702700,81.30770263671874,9.818860054016113,1014.6369171142578
1700007102964873000,82.383873046875,9.824145317077637,1014.6363067626953
1700007104040999700,83.45999975585937,9.818860054016113,1014.6369171142578
1700007105117131800,84.5361318359375,9.8082914352417,1014.6376800537109
1700007106193268700,85.61226879882813,9.8082914352417,1014.6379089355469
1700007107269414700,86.68841455078125,9.803006172180176,1014.6388244628906
1700007108345541600,87.76454174804688,9.797721862792969,1014.6391296386719
1700007109421641700,88.84064184570312,9.803006172180176,1014.6388244628906
1700007110497730800,89.91673071289063,9.803006172180176,1014.6387481689453
1700007111573825800,90.99282568359375,9.829429626464844,1014.6356201171875
1700007112649915600,92.06891552734375,9.993253707885742,1014.6158599853516
1700007113725993700,93.14499365234374,10.363178253173828,1014.5711517333984
1700007114802106600,94.22110668945312,10.944488525390625,1014.5014953613281
1700007115878192600,95.29719262695312,11.721330642700195,1014.4080352783203
1700007116954243600,96.37324365234375,12.609149932861328,1014.3010711669922
1700007118030378800,97.44937866210938,13.41241455078125,1014.2042541503906
1700007119106440000,98.52543994140625,14.025433540344238,1014.1311645507812
1700007120182481000,99.60148095703126,14.4270658493042,1014.0825653076172
1700007121258524700,100.67752465820313,14.617313385009766,1014.0594482421875
1700007122334639900,101.75363989257812,14.680728912353516,1014.0518188476562
1700007123410751700,102.82975170898438,14.70186710357666,1014.0495300292969
1700007124486893600,103.9058935546875,14.70186710357666,1014.0495300292969
1700007125563044900,104.982044921875,14.70186710357666,1014.0496826171875
1700007126639184600,106.0581845703125,14.69129753112793,1014.0508270263672
1700007127715329500,107.13432958984374,14.675443649291992,1014.0529632568359
1700007128791485000,108.21048486328125,14.659589767456055,1014.0544128417969
1700007129867699700,109.28669970703125,14.643735885620117,1014.0564727783203
1700007130943946800,110.36294677734375,14.63845157623291,1014.0573120117188
1700007132020191700,111.43919165039063,14.633167266845703,1014.0577697753906
1700007133096419800,112.515419921875,14.62788200378418,1014.0582275390625
1700007134172601600,113.5916015625,14.617313385009766,1014.0593719482422
1700007135248832800,114.66783276367188,14.612028121948242,1014.0602874755859
1700007136325113900,115.74411376953125,14.606743812561035,1014.061279296875
1700007137401468000,116.82046801757812,14.596174240112305,1014.0624237060547
1700007138477766000,117.89676586914062,14.580320358276367,1014.0637969970703
1700007139553977600,118.9729775390625,14.580320358276367,1014.0640258789062
1700007140630194700,120.04919458007812,14.580320358276367,1014.0640258789062
1700007141706449700,121.12544970703125,14.52219009399414,1014.0712738037109
1700007142782695000,122.20169482421875,14.268527030944824,1014.1017913818359
1700007143858900700,123.27790063476563,13.824617385864258,1014.1548156738281
1700007144935142000,124.35414184570313,13.153468132019043,1014.2356872558594
1700007146011393800,125.43039379882812,12.270933151245117,1014.3421173095703
1700007147087676700,126.5066767578125,11.208720207214355,1014.4694519042969
1700007148163920600,127.58292065429687,10.141222953796387,1014.5979309082031
1700007149240162600,128.65916259765626,9.052587509155273,1014.7286224365234
1700007150316399900,129.73539990234374,7.96395206451416,1014.8595428466797
1700007151392622600,130.81162255859374,6.896454811096191,1014.9880218505859
1700007152468858600,131.88785864257812,5.813103675842285,1015.1181793212891
1700007153545073700,132.96407373046875,4.7297515869140625,1015.2487945556641
1700007154621310700,134.04031079101563,3.6516857147216797,1015.3783416748047
1700007155697571800,135.11657177734375,2.6106128692626953,1015.5042266845703
1700007156773841700,136.19284155273436,1.6646614074707031,1015.6178283691406
1700007157850128600,137.26912866210938,0.9195270538330078,1015.7070922851562
1700007158926418000,138.34541796875,0.3752098083496094,1015.7728576660156
1700007160002739700,139.42173974609375,0.03699302673339844,1015.8134460449219
1700007161079015700,140.498015625,-0.1268310546875,1015.8332061767578
1700007162155278600,141.57427856445312,-0.19024658203125,1015.8406066894531
1700007163231560700,142.65056079101564,-0.2061004638671875,1015.8427429199219
1700007164307829500,143.72682958984376,-0.23252487182617188,1015.8460235595703
1700007165384129800,144.8031298828125,-0.24837875366210938,1015.8482360839844
1700007166460422700,145.87942260742187,-0.2642326354980469,1015.8500671386719
1700007167536745000,146.95574487304688,-0.2959403991699219,1015.8536529541016
1700007168613033700,148.03203369140624,-0.3646392822265625,1015.8621215820312
1700007169689349600,149.108349609375,-0.5126094818115234,1015.8795928955078
1700007170765682700,150.1846826171875,-0.7028579711914062,1015.9027099609375
1700007171841993700,151.26099365234376,-0.8878192901611328,1015.9248352050781
1700007172918312700,152.33731274414063,-1.0305042266845703,1015.9419250488281
1700007173994634800,153.413634765625,-1.1784744262695312,1015.9597778320312
1700007175070924800,154.4899248046875,-1.1890430450439453,1015.9610748291016
1700007176147217000,155.566216796875,-1.1890430450439453,1015.9610748291016
1700007177223497700,156.64249780273437,-1.1361980438232422,1015.9548950195312
1700007178299799800,157.7187998046875,-1.1097736358642578,1015.9519195556641
1700007179376154600,158.79515454101562,-1.0939197540283203,1015.94970703125
1700007180452528600,159.87152856445311,-1.0939197540283203,1015.94970703125
1700007181528854500,160.9478544921875,-1.1837596893310547,1015.9608459472656
1700007182605177600,162.02417749023436,-1.4638442993164062,1015.9946441650391
1700007183681493800,163.10049365234374,-1.907754898071289,1016.0475158691406
1700007184757799700,164.17679956054687,-2.457357406616211,1016.1136627197266
1700007185834106600,165.25310668945312,-3.1390762329101562,1016.1959075927734
1700007186910477600,166.3294775390625,-3.8419322967529297,1016.2804412841797
1700007187986757600,167.40575756835938,-4.386251449584961,1016.3459014892578
1700007189063081700,168.48208178710937,-4.782598495483398,1016.3936614990234
1700007190139427600,169.55842749023438,-5.041545867919922,1016.4251708984375
1700007191215857700,170.63485766601562,-5.136669158935547,1016.436767578125
1700007192292222700,171.71122265625,-5.194801330566406,1016.4433288574219
